(mbar)	(K)    	(cm2/s)   (km)  (1/cm^3)
Pressure	Temp	Kzz  Altitude  Total number density
7.373e-08   915.7   5743000000.0   1369.0   583335760.0
1.025e-07   914.4   4413000000.0   1316.0   811937500.0
1.428e-07   912.8   3385000000.0   1264.0   1132816800.0
1.981e-07   910.7   2604000000.0   1212.0   1575717700.0
2.753e-07   908.2   2002000000.0   1161.0   2196066000.0
3.832e-07   904.8   1536000000.0   1109.0   3068059000.0
5.313e-07   900.6   1183000000.0   1058.0   4273892000.0
7.39e-07   895.1   908500000.0   1008.0   5981158000.0
1.025e-06   888.2   699400000.0   958.0   8357581000.0
1.425e-06   879.5   537200000.0   908.4   11744850000.0
1.978e-06   868.5   413300000.0   859.6   16502660000.0
2.743e-06   854.8   318100000.0   811.9   23252290000.0
3.806e-06   837.8   244800000.0   765.0   32913800000.0
5.285e-06   816.8   188300000.0   719.2   46876620000.0
7.311e-06   791.6   145200000.0   675.2   66914810000.0
1.009e-05   761.8   112300000.0   633.1   95934600000.0
1.39e-05   726.7   86840000.0   593.0   138594300000.0
1.907e-05   687.0   67440000.0   555.6   201067000000.0
2.623e-05   641.9   52270000.0   520.2   296015200000.0
3.601e-05   592.5   40560000.0   487.5   440288400000.0
4.939e-05   539.5   31500000.0   457.7   663224000000.0
6.7e-05   486.5   24680000.0   431.7   997838200000.0
9.084e-05   432.7   19350000.0   408.6   1521079300000.0
0.0001228   380.1   15200000.0   388.3   2339593200000.0
0.0001653   330.5   11990000.0   370.9   3622879400000.0
0.00022   282.8   9535000.0   356.6   5634655300000.0
0.0002945   241.0   7549000.0   344.2   8853604000000.0
0.0004006   216.9   5903000.0   332.8   13380585000000.0
0.0005446   201.4   4617000.0   322.5   19589593000000.0
0.0007319   191.5   3645000.0   313.2   27689894000000.0
0.0009982   184.2   2843000.0   304.0   39249186000000.0
0.001378   178.9   2197000.0   294.8   55776401000000.0
0.001849   175.4   1736000.0   286.7   76368462000000.0
0.002497   172.8   1365000.0   278.6   104666335000000.0
0.003385   170.9   1070000.0   270.6   143412007000000.0
0.004609   169.4   836300.0   262.6   196981504000000.0
0.006291   168.3   652000.0   254.7   270710934400000.0
0.008605   167.5   507500.0   246.9   372010448100000.0
0.01179   166.8   397100.0   239.1   511690156300000.0
0.01619   166.4   312100.0   231.3   704250044680000.0
0.02222   166.0   245300.0   223.6   969200016930000.0
0.03056   165.7   192500.0   216.0   1335200010420000.0
0.04206   165.6   151000.0   208.3   1838000007743000.0
0.05787   165.4   118500.0   200.7   2532700006070000.0
0.07977   165.4   92860.0   193.1   3490900004867000.0
0.11   165.4   72750.0   185.5   4811700004030000.0
0.1517   165.4   56980.0   178.0   6635500003471000.0
0.2091   165.4   44630.0   170.5   9150000003111000.0
0.2888   165.4   34930.0   163.0   1.2637000002895e+16
0.3984   165.4   27350.0   155.5   1.7428000002785e+16
0.5507   165.4   21390.0   148.1   2.4088000002749e+16
0.7609   165.4   16730.0   140.6   3.3280000002771e+16
1.053   165.3   13230.0   133.1   4.6069000002846e+16
1.456   165.0   11180.0   125.7   6.3808000002973e+16
2.018   164.4   9432.0   118.2   8.8810000003148e+16
2.803   163.0   7951.0   110.8   1.24380000003368e+17
3.751   160.9   6834.0   104.3   1.686500000036e+17
5.039   157.9   5861.0   97.75   2.30850000003884e+17
6.818   154.4   5009.0   91.25   3.19340000004245e+17
9.287   151.0   4265.0   84.75   4.44850000004703e+17
12.75   147.8   3618.0   78.24   6.23730000005279e+17
17.63   144.6   3056.0   71.73   8.81600000006008e+17
23.4   141.4   2638.0   66.16   1.197100000006839e+18
31.3   137.5   2268.0   60.59   1.646200000007972e+18
42.23   132.8   1940.0   55.02   2.300200000009512e+18
57.72   126.9   1649.0   49.45   3.28890000001164e+18
75.94   120.1   1430.0   44.8   4.57280000001393e+18
95.67   114.3   1268.0   41.1   6.05340000001484e+18
107.9   111.9   1192.0   39.24   6.97150000001456e+18
122.0   110.0   1118.0   37.37   8.01800000001382e+18
138.0   108.7   1048.0   35.52   9.17800000001274e+18
156.3   108.8   982.4   33.67   1.039200000001137e+19
177.0   109.9   920.9   31.8   1.164600000000982e+19
199.9   112.1   864.5   29.95   1.2896000000008172e+19
225.1   115.0   812.8   28.09   1.415800000000642e+19
253.1   118.3   764.7   26.22   1.5468000000004514e+19
283.1   121.7   721.5   24.37   1.6821000000002277e+19
316.0   125.1   11490.0   22.52   1.8269000000001913e+19
351.5   128.3   11860.0   20.65   1.980900000000168e+19
390.6   131.3   12240.0   18.79   2.1511000000001487e+19
432.3   134.0   12620.0   16.94   2.3328000000001315e+19
478.2   136.6   13010.0   15.07   2.5319000000001163e+19
527.0   139.0   13400.0   13.22   2.7416000000001036e+19
580.5   141.7   13790.0   11.36   2.9626000000000926e+19
638.4   144.3   14190.0   9.498   3.198900000000083e+19
700.4   147.6   14590.0   7.645   3.431600000000076e+19
766.8   152.4   14990.0   5.784   3.6387000000000713e+19
837.0   156.9   15390.0   3.926   3.857600000000066e+19
911.3   161.3   15790.0   2.076   4.0856000000000614e+19
990.1   165.4   16190.0   0.219   4.3288000000000565e+19
1074.0   170.1   16590.0   -1.643   4.564900000000052e+19
1162.0   174.3   16990.0   -3.5   4.820700000000047e+19
1255.0   178.8   17390.0   -5.361   5.074400000000042e+19
1352.0   182.9   17780.0   -7.205   5.344100000000038e+19
1455.0   187.3   18180.0   -9.065   5.6173000000000336e+19
1562.0   191.7   18570.0   -10.91   5.89170000000003e+19
1675.0   196.0   18960.0   -12.78   6.182200000000027e+19
1795.0   200.2   19360.0   -14.64   6.4822000000000246e+19
1983.0   206.4   19950.0   -17.41   6.9464000000000205e+19
2185.0   212.9   20540.0   -20.2   7.423000000000016e+19
2402.0   219.4   21130.0   -22.99   7.915000000000015e+19
2630.0   225.5   21720.0   -25.76   8.435000000000013e+19
2876.0   231.8   22310.0   -28.56   8.97400000000001e+19
3137.0   238.2   22900.0   -31.35   9.525000000000007e+19
3414.0   244.4   23490.0   -34.13   1.0101000000000005e+20
3706.0   250.7   24070.0   -36.91   1.0691000000000003e+20
4122.0   259.0   24850.0   -40.62   1.1509000000000002e+20
4689.0   269.2   25840.0   -45.28   1.2596000000000002e+20
5305.0   279.5   26810.0   -49.91   1.373e+20
5976.0   289.8   27790.0   -54.54   1.4912e+20
6708.0   300.0   28770.0   -59.2   1.6173e+20
